sys.exec.out.time {s},x_pos {m},y_pos {m},angle {rad}
                   0,1.613233930001255e-19,0.001163110944354652,   1.570753234615696
            0.016667,1.13537584466687e-07,0.003101695339366294,   1.570710142436496
            0.033334,9.840526771532526e-07,0.009305460905240759,   1.570623958078096
            0.050001,3.217285755606847e-06, 0.01861164956222741,   1.570537773719696
 0.06666800000000001,5.034253130402297e-06, 0.02442826282732558,   1.570494681540496
 0.08333500000000001,1.044762813650106e-05,  0.0383887477997449,   1.570408497182096
            0.100002,1.873867549642627e-05, 0.05545253813884862,   1.570322312823696
            0.116669,2.415276564535442e-05, 0.06514828311806928,   1.570279220644496
            0.133336,3.789703301194947e-05, 0.08686769330330765,   1.570193036286096
            0.150003,5.603478928115607e-05,  0.1116912912845863,   1.570106851927696
             0.16667,6.694077291301474e-05,   0.125267271014194,   1.570063759748495
            0.183337,9.280612099959627e-05,  0.1547478125943831,   1.569977575390095
            0.200004,0.0001245816373267316,  0.1873334245422767,   1.569891391031695
            0.216671,0.0001428753636358488,  0.2047907422364207,   1.569848298852495
            0.233338,0.0001846541382170827,  0.2420346217408416,   1.569762114494095
            0.250005, 0.00023386062374997,  0.2823844543154387,   1.569675930135695
            0.266672,0.0002614390211462013,  0.3037242133517759,   1.569632837956495
            0.283339,0.0003229257268535587,  0.3487336376280866,   1.569546653598095
            0.300006,0.0003933585501563129,  0.3968498977963243,   1.569460469239695
            0.316673,0.0004321196269643963,    0.42207320170161,   1.569417377060494
             0.33334,0.0005171109286664376,  0.4748503778870057,   1.569331192702094
            0.350007,0.0006125676190751534,  0.5307352728938045,   1.569245008343694
            0.366674,0.0006644104642033191,  0.5598432253294496,   1.569201916164494
            0.383341,0.0007767051883244245,  0.6203903608217582,   1.569115731806094
            0.400008,0.0009009854372412276,  0.6840460981610907,   1.569029547447694
            0.416675,0.0009678102208189592,  0.7170398029086862,   1.568986455268494
            0.433342,0.001111209356596301,  0.7853591053373969,   1.568900270910094
            0.450009,0.001268115018721558,  0.8567878927232907,   1.568814086551694
            0.466676,0.001351822992706401,   0.893668453670099,   1.568770994372493
            0.483343,0.001530129693384946,  0.9697621308673262,   1.568684810014093
             0.50001,0.001723464787887424,     1.0489661762048,   1.568598625655693
  0.5166770000000001,0.001825958286640738,   1.089734697329213,   1.568555533476493
            0.533344,0.002042977870606078,   1.173604957300592,   1.568469349118093
            0.550011,0.002276548582230844,   1.260586468656527,   1.568383164759693
            0.566678,0.002399731023062395,   1.305244054013494,   1.568340072580493
            0.583345,0.002659270974911193,   1.396893104909013,   1.568253888222093
            0.600012,0.002936885655025048,   1.491654290482956,   1.568167703863693
            0.616679,0.003082661538706334,    1.54020204418937,   1.568124611684492
            0.633346,0.003388531510254174,   1.639632094274134,   1.568038427326092
            0.650013,0.003714000677828409,   1.742175162369034,   1.567952242967692
  0.6666800000000001,0.003884275589074618,   1.794614188589096,   1.567909150788492
            0.683347,0.004240287400301058,   1.901827446214024,   1.567822966430092
            0.700014,0.004617423742831328,   2.012154605206906,   1.567736782071692
            0.716681, 0.00481410435075182,   2.068486008137449,   1.567693689892492
            0.733348, 0.00522407199068243,   2.183484681709904,   1.567607505534092
            0.750015,0.005656690365045524,   2.301598140022472,   1.567521321175692
            0.766682,0.005881684423562735,   2.361823023878252,   1.567478228996491
            0.783349,0.006349424051087912,   2.484609321832608,   1.567392044638091
  0.8000159999999999,0.006841341484335229,   2.610511287901783,   1.567305860279691
            0.816683,0.007096557832571889,    2.67463075690074,   1.567262768100491
             0.83335,0.007625887777202246,   2.805206887668878,   1.567176583742091
            0.850017,0.008180923467289738,   2.938899569917268,   1.567090399383691
            0.866684,  0.0084682720299243,   3.006914728265749,   1.567047307204491
            0.883351,  0.0090630127924824,   3.145282900247487,   1.566961122846091
            0.900018,0.009684988108936804,   3.286768507053793,   1.566874938487691
            0.916685, 0.01000637989652698,   3.358680458931746,    1.56683184630849
            0.933352, 0.01067035414977522,   3.504842880465207,    1.56674566195009
  0.9500189999999999, 0.01136309263429634,   3.654123620134557,    1.56665947759169
            0.966686, 0.01172043974357062,   3.729933469680687,    1.56661638541249
            0.983353, 0.01245747233277507,   3.883892349012591,    1.56653020105409
             1.00002,  0.0132247996997739,   4.040970429746813,    1.56644401669569
            1.016687, 0.01362001531389097,    4.12067928104371,    1.56640092451649
            1.033354, 0.01443393325732088,   4.282436826299605,    1.56631474015809
            1.050021, 0.01527967739439338,    4.44731445616743,    1.56622855579969
            1.066688, 0.01571467578316938,   4.530923413226658,   1.566185463620489
            1.083355, 0.01660930827253222,   4.700481832381084,   1.566099279262089
            1.100022,  0.0175372992408685,   4.873161219288275,   1.566013094903689
            1.116689, 0.01801399576097185,   4.960671386035433,   1.565970002724489
            1.133356, 0.01899317416178371,   5.138032886882015,   1.565883818366089
            1.150023, 0.02000724419651243,   5.318516238541444,   1.565797634007689
             1.16669, 0.02052755529162631,   5.409928718801181,   1.565754541828489
            1.183357, 0.02159511314351725,   5.595095508922658,   1.565668357470089
            1.200024, 0.02269909665398503,   5.783385032824302,   1.565582173111689
            1.216691, 0.02326493985493731,   5.878700930305319,   1.565539080932489
            1.233358, 0.02442471287189169,   6.071675217043501,   1.565452896574088
            1.250025, 0.02562244644187724,   6.267773120424375,   1.565366712215688
            1.266692, 0.02623574036673778,   6.366993538704373,   1.565323620036488
            1.283359,  0.0274915664372692,   6.567777529130038,   1.565237435678088
            1.300026, 0.02878688882513211,   6.771686018944058,   1.565151251319688
            1.316693, 0.02944955317927727,   6.874812061454665,   1.565108159140488
             1.33336, 0.03080527236653792,    7.08340796233738,   1.565021974782088
            1.350027, 0.03220202450530175,   7.295129245225166,   1.564935790423688
            1.366694, 0.03291598008144609,   7.402162015236822,   1.564892698244488
            1.383361, 0.03437543462327041,   7.618572033014702,   1.564806513886087
            1.400028, 0.03587745962063989,   7.838108315273304,   1.564720329527687
            1.416695, 0.03664462829883487,   7.949048915880118,   1.564677237348487
            1.433362, 0.03821166260771707,   8.173275256629513,   1.564591052990087
            1.450029, 0.03982280574602928,   8.400628744182074,   1.564504868631687
            1.466696, 0.04064511049362891,   8.515478278286645,   1.564461776452487
            1.483363, 0.04232357115663449,   8.747523147691762,   1.564375592094087
             1.50003, 0.04404767989274373,   8.982696046057109,   1.564289407735687
            1.516697, 0.04492704476433706,   9.101455616355311,   1.564246315556487
            1.533364, 0.04672078054294771,   9.341321219677768,   1.564160131198086
            1.550031, 0.04856170450804382,   9.584315733939944,   1.564073946839686
            1.566698, 0.04950005464535408,   9.706986442905677,   1.564030854660486
            1.583365, 0.05141291647524605,   9.954674984953984,   1.563944670302086
            1.600032, 0.05337450747460606,    10.2054933197317,   1.563858485943686
            1.616699, 0.05437376910635647,   10.33207626960161,   1.563815393764486
            1.633366, 0.05640961009711204,    10.5875899547006,   1.563729209406086
            1.650033, 0.05849572210978488,   10.84623431411662,   1.563643025047686
              1.6667,  0.0595578225515309,    10.9767306068748,   1.563599932868486
            1.683367, 0.06172049798628281,   11.24007163883494,   1.563513748510085
            1.700034, 0.06393498716470675,   11.50654422648542,   1.563427564151685
            1.716701, 0.06506185481863479,   11.64095496384802,   1.563384471972485
            1.733368, 0.06735522215364337,   11.91212554593474,   1.563298287614085
            1.750035, 0.06970194682319625,   12.18642856485846,   1.563212103255685
            1.766702,  0.0708955111778886,   12.32475484825835,   1.563169011076485
            1.783369, 0.07332343004205136,   12.60375718316122,   1.563082826718085
            1.800036,  0.0758062507005331,   12.88589283580877,   1.562996642359685
            1.816703, 0.07706844233069902,   13.02813576638008,   1.562953550180485
             1.83337, 0.07963477452499254,   13.31497205618198,   1.562867365822084
            1.850037, 0.08225755384203989,   13.60494254438489,   1.562781181463684
            1.866704, 0.08359030440821283,   13.75110322294759,   1.562738089284484
            1.883371, 0.08629891390506673,   14.04577566909374,   1.562651904926084
            1.900038, 0.08906551672149994,   14.34358319403353,   1.562565720567684
            1.916705, 0.09047075896970061,   14.49366272107792,   1.562522628388484
            1.933372, 0.09332551191230334,   14.79617352434493,   1.562436444030084
            1.950039, 0.09623980523940472,   15.10182028652206,   1.562350259671684
            1.966706, 0.09771947300077012,   15.25581976219327,   1.562307167492484
            1.983373,  0.1007242377023063,   15.56617112265807,   1.562220983134083
             2.00004,  0.1037900907210301,   15.87965932186086,   1.562134798775683
            2.016707,  0.1053461189114082,   16.03757984594327,   1.562091706596483
            2.033374,  0.1085047658542276,   16.35577396295194,   1.562005522238083
            2.050041,  0.1117260499143414,   16.67710579822544,   1.561919337879683
            2.066708,  0.1133603745338514,   16.83894847012711,   1.561876245700483
            2.083375,  0.1166767763685687,   17.16498754226375,   1.561790061342083
            2.100042,  0.1200573649877256,   17.49416521187846,   1.561703876983683
            2.116709,  0.1217719231202841,   17.65993113061549,   1.561660784804483
            2.133376,  0.1252499546648098,   17.99381735567086,   1.561574600446082
            2.150043,  0.1287937235275521,   18.33084305709148,   1.561488416087682
             2.16671,  0.1305904533403637,   18.50053332127238,   1.561445323908482
            2.183377,  0.1342339915788663,   18.84226889621263,   1.561359139550082
            2.200044,   0.137944818535559,   19.18714482606667,   1.561272955191682
            2.216711,  0.1398256592785735,   19.36076053387663,   1.561229863012482
            2.233378,  0.1436385833603711,   19.71034765481187,   1.561143678654082
            2.250045,  0.1475203484260666,   20.06307600885821,   1.561057494295682
            2.266712,  0.1494872404314005,   20.24061825804338,   1.561014402116482
            2.283379,  0.1534734316697835,   20.59805912019623,   1.560928217758081
            2.300046,  0.1575300170230161,   20.95864209329363,   1.560842033399681
            2.316713,  0.1595849017043391,   21.14011198114537,   1.560798941220481
             2.33338,  0.1637482435753233,   21.50540877881933,   1.560712756862081
            2.350047,  0.1679835335568334,   21.87384856489484,   1.560626572503681
            2.366714,  0.1701283534087206,   22.05924718823393,   1.560583480324481
            2.383381,  0.1744727315497289,   22.43240211478185,   1.560497295966081
            2.400048,   0.178890612661118,   22.80870090679919,   1.560411111607681
            2.416715,  0.1811273112583663,   22.99802936195996,   1.560368019428481
            2.433382,  0.1856566134668414,   23.37904460975234,    1.56028183507008
            2.450049,  0.1902609743691555,   23.76320459968015,    1.56019565071168
            2.466716,  0.1925914963660651,   23.95646398249465,    1.56015255853248
            2.483383,  0.1973096125980107,   24.34534174288786,    1.56006637417408
             2.50005,  0.2021043441102536,   24.73736512166795,    1.55998018981568
            2.516717,  0.2045306352398738,   24.93455652745005,    1.55993709763648
            2.533384,  0.2094414576083254,   25.33129899075449,    1.55985091327808
            2.550051,  0.2144304527059015,   25.73118794826998,    1.55976472891968
            2.566718,  0.2169544597792414,   25.93231247179938,    1.55972163674048
            2.583385,  0.2220618825526661,   26.33692182724766,   1.559635452382079
            2.600052,  0.2272490363657509,   26.74467855229106,   1.559549268023679
            2.616719,  0.2298727072709543,   26.94973728779739,   1.559506175844479
            2.633386,  0.2351806268715793,   27.36221572351227,   1.559419991486079
            2.650053,    0.24056983668342,   27.77784240375347,   1.559333807127679
             2.66672,  0.2432951203849044,   27.98683644490025,   1.559290714948479
            2.683387,  0.2488074353869739,   28.40718614786269,   1.559204530590079
            2.700054,  0.2544026006321174,   28.83068496981692,   1.559118346231679
            2.716721,  0.2572314471696778,   29.04361540968551,   1.559075254052479
            2.733388,  0.2629520582976382,    29.4718385657025,   1.558989069694078
            2.750055,  0.2687570805600877,    29.9032117146982,   1.558902885335678
            2.766722,  0.2716914410479641,   30.12007964577174,   1.558859793156478
            2.783389,  0.2776242511745777,    30.5561784394442,   1.558773608798078
            2.800056,  0.2836430341858774,   30.99542809959079,   1.558687424439678
            2.816723,  0.2866848608117857,   31.21623461373808,   1.558644332260478
             2.83339,   0.292833774956172,   31.66021122842855,   1.558558147902078
            2.850057,  0.2990702245934195,    32.1073395825842,   1.558471963543678
            2.866724,  0.3022214706175476,   32.33208577104355,   1.558428871364478
            2.883391,  0.3085903959431517,   32.78394238884392,   1.558342687006077
            2.900058,   0.315048420226938,   33.23895161858318,   1.558256502647677
            2.916725,  0.3183110399809044,   33.46763857194627,   1.558213410468477
            2.933392,  0.3249038857933944,   33.92737737364537,   1.558127226110077
            2.950059,  0.3315873948856707,   34.39026965922677,   1.558041041751677
            2.966726,  0.3349633437714474,   34.62289846742237,   1.557997949572477
            2.983393,  0.3417840215165369,   35.09052163247354,   1.557911765214077
             3.00006,  0.3486969277184098,   35.56129915280712,   1.557825580855677
            3.016727,  0.3521881622072085,   35.79787090508487,   1.557782488676477
            3.033394,  0.3592405854684079,   36.27338061157341,   1.557696304318076
            3.050061,  0.3663868032178599,   36.75204554418815,   1.557610119959676
            3.066728,  0.3699952808489817,    36.9925613291023,   1.557567027780476
            3.083395,  0.3772833653452751,   37.47595975371291,   1.557480843422076
            3.100062,  0.3846668112148133,   37.96251427472411,   1.557394659063676
            3.116729,  0.3883944905944615,   38.20697518011716,   1.557351566884476
            3.133396,  0.3959221541779109,   38.69826449810127,   1.557265382526076
            3.150063,  0.4035467468721409,   39.19271078217788,   1.557179198167676
             3.16673,  0.4073955876721975,   39.44111789516423,   1.557136105988476
            3.183397,  0.4151667503254727,   39.94030028030723,   1.557049921630075
            3.200064,  0.4230364106785993,   40.44264050063908,   1.556963737271675
            3.216731,   0.427008373635364,   40.69499490758866,   1.556920645092475
            3.233398,  0.4350269574691992,   41.20207253217716,   1.556834460734075
            3.250065,  0.4431456084424535,   41.71230886044211,   1.556748276375675
            3.266732,  0.4472426553553459,   41.96861164696394,   1.556705184196475
            3.283399,  0.4555125846059215,   42.48358668175283,   1.556618999838075
            3.300066,  0.4638841512849129,   43.00172128808389,   1.556532815479675
            3.316733,  0.4681082450151375,    43.2619735390096,   1.556489723300475
              3.3334,  0.4766334460413883,   43.78484815318917,   1.556403538942075
            3.350067,  0.4852618556333828,   44.31088320614151,   1.556317354583674
            3.366734,  0.4896149601025572,   44.57508600550889,   1.556274262404474
            3.383401,  0.4983993613834053,   45.10586236667175,   1.556188078046074
            3.400068,  0.5072885432145285,   45.63980003318969,   1.556101893687674
            3.416735,  0.5117726234032736,   45.90795446422612,   1.556058801508474
            3.433402,  0.5208201555347871,   46.44663473833417,   1.555972617150074
            3.450069,   0.529974041047153,   46.98847718371803,   1.555886432791674
            3.466736,  0.5345910629936457,   47.26058432882391,   1.555843340612474
            3.483403,  0.5439056586861222,   47.80717068017517,   1.555757156254074
             3.50007,  0.5533281814348866,   48.35692006804811,   1.555670971895673
            3.516737,  0.5580801122333757,   48.63298100878029,   1.555627879716473
            3.533404,  0.5676657063083502,   49.18747559997565,   1.555541695358073
            3.550071,  0.5773608019586884,    49.7451340922504,   1.555455510999673
            3.566738,  0.5822496097579724,   50.02514990930553,   1.555412418820473
            3.583405,  0.5921101391451501,   50.58755490121548,   1.555326234462073
            3.600072,    0.60208174546916,   51.15312465806103,   1.555240050103673
            3.616739,  0.6071093994710262,   51.43709643125886,   1.555196957924473
            3.633406,  0.6172488032051399,   52.00741398299011,   1.555110773566073
            3.650073,  0.6275008600786681,   52.58089716279831,   1.555024589207672
             3.66674,  0.6326693305362953,   52.86882597106502,   1.554981497028472
            3.683407,   0.643091549753886,   53.44705823992708,   1.554895312670072
            3.700074,  0.6536279991532787,   54.02845699927917,   1.554809128311672
            3.716741,  0.6589392573696008,   54.32034392063061,   1.554766036132472
            3.733408,  0.6696482353057237,   54.90649306210225,   1.554679851774072
            3.750075,  0.6804730213045017,   55.49580955573532,   1.554593667415672
            3.766742,  0.6859290396305338,   55.79165566726022,   1.554550575236472
            3.783409,  0.6969287216153858,   56.38572383495594,   1.554464390878072
            3.800076,  0.7080457903808418,   56.98296021572935,   1.554378206519671
            3.816743,  0.7136485422139675,   57.28276659357252,   1.554335114340471
             3.83341,  0.7249428756694402,   57.88475593920886,   1.554248929982071
            3.850077,  0.7363561754591611,   58.48991435807051,   1.554162745623671
            3.866744,  0.7421076352413819,   58.79368207741599,   1.554119653444471
            3.883411,  0.7537005696775365,   59.40359475077779,   1.554033469086071
            3.900078,   0.765414050835847,   60.01667735673043,   1.553947284727671
            3.916745,  0.7713161940519929,   60.32440749178462,   1.553904192548471
            3.933412,   0.783211681063459,   60.94224564069133,   1.553818008190071
